# # comment:                                                     FEFF 9.6.4  
# # Source:
# # Structure
# # Reduced
# # space
# # abc:
# # angles:
# # sites:
# # POT  SCF  30  4.5000   0, screened core-hole, AFOLP (folp(0)= 1.150)
# # Abs   Z= 8 Rmt= 0.985 Rnm= 1.052 K  shell
# # Pot 1 Z=77 Rmt= 1.310 Rnm= 1.418
# # Pot 2 Z= 8 Rmt= 0.985 Rnm= 1.052
# # Gam_ch=1.559E-01 H-L exch Vi= 0.000E+00 Vr= 0.000E+00
# # Mu=-6.240E+00 kf=2.408E+00 Vint=-1.664E+01 Rs_int= 1.506
# FMS rfms= 7.5000
# # PATH  Rmax=-1.000,  Keep_limit= 0.00, Heap_limit 0.00  Pwcrit= 2.50%
#  S02=0.999  Temp=   0.00  Debye_temp=   0.00  Global_sig2= 0.00000
#  Energy zero shift, vr, vi    0.00000E+00   0.00000E+00
#  Curved wave amplitude ratio filter   4.000%
#     file         sig2 tot  cw amp ratio   deg  nlegs   reff  inp sig2
#     0/   0 paths used
#  xsedge+ 50, used to normalize mu           4.7670E-03
#  -----------------------------------------------------------------------
#  omega    e    k    mu    mu0     chi     @#
     527.440     -8.678  -0.800  1.87453E-02  1.39130E-02  4.83226E-03
     527.903     -8.215  -0.720  2.30208E-02  1.73167E-02  5.70417E-03
     528.317     -7.800  -0.640  2.86015E-02  2.21076E-02  6.49384E-03
     528.683     -7.434  -0.560  3.59979E-02  2.91382E-02  6.85972E-03
     529.000     -7.117  -0.480  4.60226E-02  4.00193E-02  6.00328E-03
     529.268     -6.849  -0.400  6.01407E-02  5.80813E-02  2.05947E-03
     529.488     -6.630  -0.320  8.15173E-02  9.10355E-02 -9.51824E-03
     529.659     -6.459  -0.240  1.18467E-01  1.59211E-01 -4.07449E-02
     529.678     -6.440  -0.229  1.25691E-01  1.73599E-01 -4.79083E-02
     529.778     -6.340  -0.162  1.91266E-01  3.11608E-01 -1.20342E-01
     529.878     -6.240   0.000  3.86135E-01  7.44204E-01 -3.58069E-01
     529.978     -6.140   0.162  5.76914E-01  1.17486E+00 -5.97947E-01
     530.078     -6.040   0.229  6.37867E-01  1.30916E+00 -6.71290E-01
     530.178     -5.940   0.281  6.73132E-01  1.36052E+00 -6.87389E-01
     530.278     -5.840   0.324  7.13250E-01  1.38523E+00 -6.71983E-01
     530.372     -5.746   0.360  7.65213E-01  1.39789E+00 -6.32674E-01
     530.488     -5.630   0.400  8.59036E-01  1.40643E+00 -5.47389E-01
     530.616     -5.502   0.440  1.01398E+00  1.41088E+00 -3.96891E-01
     530.756     -5.362   0.480  1.26906E+00  1.41238E+00 -1.43323E-01
     530.908     -5.209   0.520  1.68346E+00  1.41173E+00  2.71732E-01
     531.073     -5.045   0.560  2.36337E+00  1.40941E+00  9.53959E-01
     531.250     -4.868   0.600  3.53468E+00  1.40580E+00  2.12888E+00
     531.439     -4.679   0.640  5.29090E+00  1.40116E+00  3.88973E+00
     531.640     -4.478   0.680  6.14487E+00  1.39572E+00  4.74915E+00
     531.853     -4.265   0.720  5.07692E+00  1.38961E+00  3.68731E+00
     532.079     -4.039   0.760  4.07784E+00  1.38299E+00  2.69485E+00
     532.316     -3.801   0.800  3.13099E+00  1.37593E+00  1.75507E+00
     532.566     -3.551   0.840  2.36977E+00  1.36853E+00  1.00124E+00
     532.828     -3.289   0.880  2.07902E+00  1.36087E+00  7.18152E-01
     533.103     -3.015   0.920  2.07226E+00  1.35299E+00  7.19271E-01
     533.389     -2.728   0.960  1.77230E+00  1.34498E+00  4.27321E-01
     533.688     -2.430   1.000  1.43064E+00  1.33687E+00  9.37705E-02
     533.999     -2.119   1.040  1.36296E+00  1.32869E+00  3.42685E-02
     534.322     -1.796   1.080  1.42990E+00  1.32049E+00  1.09403E-01
     534.657     -1.460   1.120  1.48676E+00  1.31231E+00  1.74450E-01
     535.005     -1.113   1.160  1.53701E+00  1.30416E+00  2.32851E-01
     535.364     -0.753   1.200  1.62150E+00  1.29607E+00  3.25430E-01
     535.736     -0.381   1.240  1.64596E+00  1.28806E+00  3.57899E-01
     536.120      0.003   1.280  1.58312E+00  1.28016E+00  3.02959E-01
     536.517      0.399   1.320  1.54999E+00  1.27236E+00  2.77625E-01
     536.925      0.807   1.360  1.55683E+00  1.26470E+00  2.92124E-01
     537.346      1.228   1.400  1.59726E+00  1.25719E+00  3.40068E-01
     537.778      1.661   1.440  1.69900E+00  1.24983E+00  4.49170E-01
     538.223      2.106   1.480  1.78160E+00  1.24262E+00  5.38986E-01
     538.681      2.563   1.520  1.73729E+00  1.23558E+00  5.01705E-01
     539.150      3.032   1.560  1.71569E+00  1.22871E+00  4.86972E-01
     539.632      3.514   1.600  1.73896E+00  1.22202E+00  5.16938E-01
     540.125      4.008   1.640  1.61512E+00  1.21551E+00  3.99606E-01
     540.631      4.514   1.680  1.44521E+00  1.20917E+00  2.36048E-01
     541.149      5.032   1.720  1.32559E+00  1.20299E+00  1.22595E-01
     541.680      5.562   1.760  1.23435E+00  1.19700E+00  3.73440E-02
     542.222      6.105   1.800  1.12150E+00  1.19117E+00 -6.96710E-02
     542.777      6.659   1.840  1.01261E+00  1.18552E+00 -1.72906E-01
     543.344      7.226   1.880  9.34834E-01  1.18003E+00 -2.45191E-01
     543.923      7.806   1.920  8.98188E-01  1.17470E+00 -2.76514E-01
     544.514      8.397   1.960  8.98974E-01  1.16953E+00 -2.70559E-01
     545.118      9.000   2.000  9.22742E-01  1.16452E+00 -2.41775E-01
     545.734      9.616   2.040  9.58200E-01  1.15964E+00 -2.01440E-01
     546.362     10.244   2.080  9.91164E-01  1.15490E+00 -1.63732E-01
     547.002     10.884   2.120  1.00710E+00  1.15029E+00 -1.43193E-01
     547.654     11.536   2.160  1.00744E+00  1.14581E+00 -1.38374E-01
     548.318     12.201   2.200  9.90622E-01  1.14144E+00 -1.50819E-01
     548.995     12.877   2.240  9.54699E-01  1.13718E+00 -1.82484E-01
     549.684     13.566   2.280  9.03799E-01  1.13304E+00 -2.29239E-01
     550.385     14.267   2.320  8.53175E-01  1.12897E+00 -2.75799E-01
     551.098     14.980   2.360  8.18148E-01  1.12499E+00 -3.06841E-01
     551.823     15.706   2.400  8.05639E-01  1.12110E+00 -3.15457E-01
     552.561     16.444   2.440  8.16998E-01  1.11726E+00 -3.00265E-01
     553.311     17.193   2.480  8.48410E-01  1.11349E+00 -2.65077E-01
     554.073     17.955   2.520  8.94845E-01  1.10977E+00 -2.14923E-01
     554.847     18.729   2.560  9.69747E-01  1.10609E+00 -1.36340E-01
     555.633     19.516   2.600  1.08329E+00  1.10244E+00 -1.91506E-02
     556.432     20.314   2.640  1.21583E+00  1.09883E+00  1.16995E-01
     557.243     21.125   2.680  1.31717E+00  1.09522E+00  2.21944E-01
     558.066     21.948   2.720  1.36101E+00  1.09165E+00  2.69367E-01
     558.901     22.783   2.760  1.38774E+00  1.08805E+00  2.99686E-01
     559.748     23.631   2.800  1.42067E+00  1.08445E+00  3.36217E-01
     560.608     24.490   2.840  1.38495E+00  1.08084E+00  3.04111E-01
     561.480     25.362   2.880  1.29761E+00  1.07722E+00  2.20394E-01
     562.363     26.246   2.920  1.22722E+00  1.07356E+00  1.53660E-01
     563.260     27.142   2.960  1.17747E+00  1.06986E+00  1.07602E-01
     564.168     28.050   3.000  1.14255E+00  1.06612E+00  7.64246E-02
     565.088     28.971   3.040  1.11205E+00  1.06234E+00  4.97101E-02
     566.021     29.903   3.080  1.07495E+00  1.05851E+00  1.64408E-02
     566.966     30.848   3.120  1.03433E+00  1.05461E+00 -2.02880E-02
     567.923     31.805   3.160  9.97631E-01  1.05066E+00 -5.30256E-02
     568.892     32.775   3.200  9.70110E-01  1.04663E+00 -7.65240E-02
     569.874     33.756   3.240  9.53829E-01  1.04255E+00 -8.87159E-02
     570.867     34.750   3.280  9.48199E-01  1.03837E+00 -9.01748E-02
     571.873     35.756   3.320  9.52062E-01  1.03412E+00 -8.20560E-02
     572.891     36.774   3.360  9.63480E-01  1.02980E+00 -6.63154E-02
     573.921     37.804   3.400  9.78166E-01  1.02537E+00 -4.72070E-02
     574.964     38.846   3.440  9.90453E-01  1.02088E+00 -3.04295E-02
     576.018     39.901   3.480  9.95591E-01  1.01629E+00 -2.07019E-02
     577.085     40.968   3.520  9.91840E-01  1.01164E+00 -1.97975E-02
     578.164     42.047   3.560  9.81473E-01  1.00688E+00 -2.54102E-02
     579.255     43.138   3.600  9.68108E-01  1.00203E+00 -3.39245E-02
     580.359     44.241   3.640  9.54805E-01  9.97127E-01 -4.23218E-02
     581.474     45.357   3.680  9.42926E-01  9.92167E-01 -4.92404E-02
     582.602     46.484   3.720  9.32799E-01  9.87205E-01 -5.44053E-02
