# # comment:                                                     FEFF 9.6.4  
# # Source:
# # Structure
# # Reduced
# # space
# # abc:
# # angles:
# # sites:
# # POT  SCF  30  4.5000   0, screened core-hole, AFOLP (folp(0)= 1.150)
# # Abs   Z= 8 Rmt= 1.013 Rnm= 1.069 K  shell
# # Pot 1 Z=38 Rmt= 1.788 Rnm= 1.863
# # Pot 2 Z=77 Rmt= 1.361 Rnm= 1.444
# # Pot 3 Z= 8 Rmt= 1.013 Rnm= 1.069
# # Gam_ch=1.559E-01 H-L exch Vi= 0.000E+00 Vr= 0.000E+00
# # Mu=-6.536E+00 kf=2.270E+00 Vint=-1.649E+01 Rs_int= 1.598
# FMS rfms= 7.5000
# # PATH  Rmax=-1.000,  Keep_limit= 0.00, Heap_limit 0.00  Pwcrit= 2.50%
#  S02=0.999  Temp=   0.00  Debye_temp=   0.00  Global_sig2= 0.00000
#  Energy zero shift, vr, vi    0.00000E+00   0.00000E+00
#  Curved wave amplitude ratio filter   4.000%
#     file         sig2 tot  cw amp ratio   deg  nlegs   reff  inp sig2
#     0/   0 paths used
#  xsedge+ 50, used to normalize mu           4.7692E-03
#  -----------------------------------------------------------------------
#  omega    e    k    mu    mu0     chi     @#
     527.508     -8.974  -0.800  1.94605E-02  1.41240E-02  5.33657E-03
     527.971     -8.511  -0.720  2.40965E-02  1.75892E-02  6.50734E-03
     528.385     -8.096  -0.640  3.02514E-02  2.24695E-02  7.78193E-03
     528.751     -7.730  -0.560  3.85675E-02  2.96353E-02  8.93223E-03
     529.068     -7.413  -0.480  5.00580E-02  4.07320E-02  9.32608E-03
     529.336     -7.145  -0.400  6.64701E-02  5.91616E-02  7.30846E-03
     529.556     -6.926  -0.320  9.12955E-02  9.28036E-02 -1.50811E-03
     529.727     -6.755  -0.240  1.33014E-01  1.62433E-01 -2.94191E-02
     529.746     -6.736  -0.229  1.40970E-01  1.77130E-01 -3.61603E-02
     529.846     -6.636  -0.162  2.11059E-01  3.18130E-01 -1.07071E-01
     529.946     -6.536  -0.000  4.12715E-01  7.60174E-01 -3.47458E-01
     530.046     -6.436   0.162  6.26577E-01  1.20005E+00 -5.73472E-01
     530.146     -6.336   0.229  7.32576E-01  1.33692E+00 -6.04341E-01
     530.246     -6.236   0.281  8.26851E-01  1.38900E+00 -5.62153E-01
     530.346     -6.136   0.324  9.40890E-01  1.41382E+00 -4.72929E-01
     530.440     -6.042   0.360  1.08079E+00  1.42635E+00 -3.45564E-01
     530.556     -5.926   0.400  1.32136E+00  1.43459E+00 -1.13228E-01
     530.684     -5.798   0.440  1.71657E+00  1.43860E+00  2.77969E-01
     530.824     -5.658   0.480  2.35504E+00  1.43959E+00  9.15446E-01
     530.976     -5.505   0.520  3.18699E+00  1.43832E+00  1.74867E+00
     531.141     -5.341   0.560  3.96073E+00  1.43534E+00  2.52539E+00
     531.318     -5.164   0.600  4.45425E+00  1.43103E+00  3.02322E+00
     531.507     -4.975   0.640  4.30852E+00  1.42565E+00  2.88287E+00
     531.708     -4.774   0.680  3.83950E+00  1.41943E+00  2.42007E+00
     531.921     -4.560   0.720  3.28510E+00  1.41253E+00  1.87256E+00
     532.147     -4.335   0.760  2.50875E+00  1.40508E+00  1.10367E+00
     532.384     -4.097   0.800  1.86219E+00  1.39721E+00  4.64979E-01
     532.634     -3.847   0.840  1.70196E+00  1.38899E+00  3.12966E-01
     532.896     -3.585   0.880  2.01246E+00  1.38051E+00  6.31953E-01
     533.171     -3.311   0.920  2.58716E+00  1.37183E+00  1.21533E+00
     533.457     -3.024   0.960  2.57868E+00  1.36301E+00  1.21566E+00
     533.756     -2.726   1.000  2.09997E+00  1.35411E+00  7.45862E-01
     534.067     -2.415   1.040  2.18239E+00  1.34517E+00  8.37221E-01
     534.390     -2.092   1.080  2.28143E+00  1.33621E+00  9.45214E-01
     534.725     -1.756   1.120  2.15110E+00  1.32727E+00  8.23823E-01
     535.073     -1.409   1.160  1.79755E+00  1.31840E+00  4.79150E-01
     535.432     -1.049   1.200  1.56394E+00  1.30961E+00  2.54325E-01
     535.804     -0.677   1.240  1.47232E+00  1.30092E+00  1.71400E-01
     536.188     -0.293   1.280  1.58893E+00  1.29236E+00  2.96567E-01
     536.585      0.103   1.320  1.73566E+00  1.28393E+00  4.51724E-01
     536.993      0.511   1.360  1.71586E+00  1.27567E+00  4.40184E-01
     537.414      0.932   1.400  1.68362E+00  1.26756E+00  4.16053E-01
     537.846      1.365   1.440  1.70861E+00  1.25962E+00  4.48988E-01
     538.291      1.810   1.480  1.60743E+00  1.25188E+00  3.55553E-01
     538.749      2.267   1.520  1.45341E+00  1.24432E+00  2.09093E-01
     539.218      2.736   1.560  1.35032E+00  1.23695E+00  1.13375E-01
     539.700      3.218   1.600  1.30065E+00  1.22977E+00  7.08758E-02
     540.193      3.712   1.640  1.29335E+00  1.22278E+00  7.05651E-02
     540.699      4.218   1.680  1.30793E+00  1.21600E+00  9.19358E-02
     541.217      4.736   1.720  1.30225E+00  1.20941E+00  9.28368E-02
     541.748      5.266   1.760  1.19692E+00  1.20302E+00 -6.10495E-03
     542.290      5.809   1.800  1.14574E+00  1.19680E+00 -5.10604E-02
     542.845      6.364   1.840  1.13090E+00  1.19079E+00 -5.98852E-02
     543.412      6.930   1.880  1.05272E+00  1.18495E+00 -1.32233E-01
     543.991      7.510   1.920  9.22753E-01  1.17930E+00 -2.56549E-01
     544.582      8.101   1.960  8.64218E-01  1.17381E+00 -3.09594E-01
     545.186      8.704   2.000  8.65678E-01  1.16849E+00 -3.02814E-01
     545.802      9.320   2.040  8.79785E-01  1.16333E+00 -2.83543E-01
     546.430      9.948   2.080  8.82383E-01  1.15832E+00 -2.75938E-01
     547.070     10.588   2.120  8.80944E-01  1.15347E+00 -2.72525E-01
     547.722     11.240   2.160  8.87876E-01  1.14875E+00 -2.60876E-01
     548.386     11.905   2.200  9.01085E-01  1.14415E+00 -2.43068E-01
     549.063     12.581   2.240  9.10644E-01  1.13969E+00 -2.29044E-01
     549.752     13.270   2.280  9.17103E-01  1.13533E+00 -2.18222E-01
     550.453     13.971   2.320  9.18186E-01  1.13108E+00 -2.12890E-01
     551.166     14.685   2.360  9.04620E-01  1.12692E+00 -2.22305E-01
     551.892     15.410   2.400  8.86219E-01  1.12285E+00 -2.36634E-01
     552.629     16.148   2.440  8.78737E-01  1.11887E+00 -2.40138E-01
     553.379     16.897   2.480  8.88544E-01  1.11496E+00 -2.26412E-01
     554.141     17.659   2.520  9.23384E-01  1.11110E+00 -1.87711E-01
     554.915     18.434   2.560  9.90986E-01  1.10729E+00 -1.16306E-01
     555.702     19.220   2.600  1.09904E+00  1.10352E+00 -4.48349E-03
     556.500     20.018   2.640  1.23893E+00  1.09979E+00  1.39140E-01
     557.311     20.829   2.680  1.37608E+00  1.09608E+00  2.79996E-01
     558.134     21.652   2.720  1.45407E+00  1.09241E+00  3.61666E-01
     558.969     22.487   2.760  1.44399E+00  1.08873E+00  3.55266E-01
     559.816     23.335   2.800  1.40444E+00  1.08505E+00  3.19396E-01
     560.676     24.194   2.840  1.37353E+00  1.08136E+00  2.92167E-01
     561.548     25.066   2.880  1.34963E+00  1.07767E+00  2.71965E-01
     562.431     25.950   2.920  1.31324E+00  1.07396E+00  2.39281E-01
     563.328     26.846   2.960  1.24241E+00  1.07020E+00  1.72209E-01
     564.236     27.754   3.000  1.15101E+00  1.06642E+00  8.45958E-02
     565.156     28.675   3.040  1.07112E+00  1.06259E+00  8.52105E-03
     566.089     29.607   3.080  1.01485E+00  1.05872E+00 -4.38696E-02
     567.034     30.552   3.120  9.78293E-01  1.05479E+00 -7.64981E-02
     567.991     31.509   3.160  9.55945E-01  1.05080E+00 -9.48504E-02
     568.960     32.479   3.200  9.44464E-01  1.04675E+00 -1.02287E-01
     569.942     33.460   3.240  9.40981E-01  1.04263E+00 -1.01645E-01
     570.935     34.454   3.280  9.43111E-01  1.03844E+00 -9.53245E-02
     571.941     35.460   3.320  9.49276E-01  1.03418E+00 -8.49034E-02
     572.959     36.478   3.360  9.57594E-01  1.02984E+00 -7.22466E-02
     573.989     37.508   3.400  9.64576E-01  1.02542E+00 -6.08419E-02
     575.032     38.550   3.440  9.66387E-01  1.02091E+00 -5.45252E-02
     576.086     39.605   3.480  9.60782E-01  1.01632E+00 -5.55404E-02
     577.153     40.672   3.520  9.48165E-01  1.01165E+00 -6.34860E-02
     578.232     41.751   3.560  9.31610E-01  1.00690E+00 -7.52882E-02
     579.323     42.842   3.600  9.14485E-01  1.00205E+00 -8.75652E-02
     580.427     43.945   3.640  8.99293E-01  9.97147E-01 -9.78538E-02
     581.542     45.061   3.680  8.86933E-01  9.92189E-01 -1.05256E-01
     582.670     46.189   3.720  8.77776E-01  9.87232E-01 -1.09456E-01
