# # comment:                                                     FEFF 9.6.4  
# # Source:
# # Structure
# # Reduced
# # space
# # abc:
# # angles:
# # sites:
# # POT  SCF  30  4.5000   0, screened core-hole, AFOLP (folp(0)= 1.150)
# # Abs   Z= 8 Rmt= 0.957 Rnm= 1.037 K  shell
# # Pot 1 Z=38 Rmt= 1.771 Rnm= 1.844
# # Pot 2 Z=77 Rmt= 1.319 Rnm= 1.428
# # Pot 3 Z= 8 Rmt= 1.023 Rnm= 1.067
# # Gam_ch=1.559E-01 H-L exch Vi= 0.000E+00 Vr= 0.000E+00
# # Mu=-6.986E+00 kf=2.329E+00 Vint=-1.796E+01 Rs_int= 1.557
# FMS rfms= 7.5000
# # PATH  Rmax=-1.000,  Keep_limit= 0.00, Heap_limit 0.00  Pwcrit= 2.50%
#  S02=0.999  Temp=   0.00  Debye_temp=   0.00  Global_sig2= 0.00000
#  Energy zero shift, vr, vi    0.00000E+00   0.00000E+00
#  Curved wave amplitude ratio filter   4.000%
#     file         sig2 tot  cw amp ratio   deg  nlegs   reff  inp sig2
#     0/   0 paths used
#  xsedge+ 50, used to normalize mu           4.7211E-03
#  -----------------------------------------------------------------------
#  omega    e    k    mu    mu0     chi     @#
     527.686     -9.425  -0.800  2.09319E-02  1.42157E-02  6.71621E-03
     528.149     -8.961  -0.720  2.59178E-02  1.77101E-02  8.20775E-03
     528.563     -8.547  -0.640  3.24584E-02  2.26328E-02  9.82557E-03
     528.929     -8.181  -0.560  4.11293E-02  2.98626E-02  1.12667E-02
     529.246     -7.864  -0.480  5.27608E-02  4.10607E-02  1.17001E-02
     529.514     -7.596  -0.400  6.86274E-02  5.96623E-02  8.96511E-03
     529.734     -7.376  -0.320  9.09884E-02  9.36231E-02 -2.63471E-03
     529.905     -7.206  -0.240  1.24928E-01  1.63920E-01 -3.89925E-02
     529.924     -7.186  -0.229  1.31014E-01  1.78759E-01 -4.77458E-02
     530.024     -7.086  -0.162  1.81543E-01  3.21123E-01 -1.39580E-01
     530.124     -6.986   0.000  3.16913E-01  7.67450E-01 -4.50537E-01
     530.224     -6.886   0.162  4.68136E-01  1.21158E+00 -7.43445E-01
     530.324     -6.786   0.229  5.60848E-01  1.34971E+00 -7.88861E-01
     530.424     -6.686   0.281  6.56226E-01  1.40223E+00 -7.46001E-01
     530.524     -6.586   0.324  7.80211E-01  1.42723E+00 -6.47014E-01
     530.618     -6.492   0.360  9.44463E-01  1.43980E+00 -4.95341E-01
     530.734     -6.377   0.400  1.26059E+00  1.44802E+00 -1.87438E-01
     530.862     -6.249   0.440  1.82281E+00  1.45196E+00  3.70849E-01
     531.002     -6.108   0.480  2.68547E+00  1.45283E+00  1.23264E+00
     531.154     -5.956   0.520  3.87531E+00  1.45141E+00  2.42390E+00
     531.319     -5.791   0.560  4.81186E+00  1.44825E+00  3.36361E+00
     531.496     -5.615   0.600  4.51893E+00  1.44370E+00  3.07523E+00
     531.685     -5.426   0.640  4.19889E+00  1.43808E+00  2.76081E+00
     531.886     -5.224   0.680  4.33720E+00  1.43158E+00  2.90562E+00
     532.099     -5.011   0.720  4.54482E+00  1.42436E+00  3.12046E+00
     532.325     -4.786   0.760  4.23692E+00  1.41659E+00  2.82033E+00
     532.562     -4.548   0.800  3.68181E+00  1.40836E+00  2.27344E+00
     532.812     -4.298   0.840  3.04829E+00  1.39977E+00  1.64852E+00
     533.074     -4.036   0.880  2.53707E+00  1.39089E+00  1.14618E+00
     533.349     -3.761   0.920  2.10930E+00  1.38180E+00  7.27497E-01
     533.635     -3.475   0.960  1.87907E+00  1.37253E+00  5.06540E-01
     533.934     -3.176   1.000  1.71164E+00  1.36318E+00  3.48462E-01
     534.245     -2.865   1.040  1.56561E+00  1.35375E+00  2.11861E-01
     534.568     -2.542   1.080  1.58273E+00  1.34431E+00  2.38420E-01
     534.903     -2.207   1.120  1.63713E+00  1.33488E+00  3.02256E-01
     535.251     -1.860   1.160  1.61301E+00  1.32549E+00  2.87524E-01
     535.610     -1.500   1.200  1.47698E+00  1.31617E+00  1.60807E-01
     535.982     -1.128   1.240  1.42094E+00  1.30695E+00  1.13988E-01
     536.366     -0.744   1.280  1.48982E+00  1.29785E+00  1.91964E-01
     536.762     -0.348   1.320  1.67425E+00  1.28888E+00  3.85367E-01
     537.171      0.061   1.360  1.87842E+00  1.28006E+00  5.98351E-01
     537.592      0.481   1.400  1.95735E+00  1.27140E+00  6.85950E-01
     538.024      0.914   1.440  1.92474E+00  1.26291E+00  6.61837E-01
     538.469      1.359   1.480  1.88660E+00  1.25459E+00  6.32009E-01
     538.927      1.816   1.520  1.76970E+00  1.24648E+00  5.23218E-01
     539.396      2.286   1.560  1.59436E+00  1.23856E+00  3.55803E-01
     539.878      2.767   1.600  1.46050E+00  1.23083E+00  2.29673E-01
     540.371      3.261   1.640  1.47901E+00  1.22331E+00  2.55705E-01
     540.877      3.767   1.680  1.44758E+00  1.21599E+00  2.31595E-01
     541.395      4.285   1.720  1.32691E+00  1.20886E+00  1.18046E-01
     541.926      4.816   1.760  1.21732E+00  1.20195E+00  1.53735E-02
     542.468      5.358   1.800  1.10510E+00  1.19523E+00 -9.01313E-02
     543.023      5.913   1.840  9.90865E-01  1.18872E+00 -1.97854E-01
     543.590      6.480   1.880  8.98550E-01  1.18241E+00 -2.83856E-01
     544.169      7.059   1.920  8.54326E-01  1.17627E+00 -3.21945E-01
     544.760      7.650   1.960  8.61448E-01  1.17033E+00 -3.08884E-01
     545.364      8.254   2.000  9.08340E-01  1.16457E+00 -2.56232E-01
     545.980      8.869   2.040  9.71745E-01  1.15901E+00 -1.87261E-01
     546.607      9.497   2.080  1.01029E+00  1.15360E+00 -1.43313E-01
     547.248     10.137   2.120  9.55738E-01  1.14836E+00 -1.92619E-01
     547.900     10.790   2.160  8.46859E-01  1.14329E+00 -2.96430E-01
     548.564     11.454   2.200  7.74929E-01  1.13836E+00 -3.63432E-01
     549.241     12.131   2.240  7.46633E-01  1.13357E+00 -3.86941E-01
     549.930     12.820   2.280  7.46140E-01  1.12893E+00 -3.82789E-01
     550.631     13.521   2.320  7.60666E-01  1.12442E+00 -3.63754E-01
     551.344     14.234   2.360  7.83600E-01  1.12003E+00 -3.36432E-01
     552.069     14.959   2.400  8.11284E-01  1.11576E+00 -3.04480E-01
     552.807     15.697   2.440  8.40344E-01  1.11160E+00 -2.71255E-01
     553.557     16.447   2.480  8.67481E-01  1.10755E+00 -2.40067E-01
     554.319     17.209   2.520  9.04323E-01  1.10356E+00 -1.99240E-01
     555.093     17.983   2.560  9.69728E-01  1.09968E+00 -1.29948E-01
     555.879     18.769   2.600  1.07093E+00  1.09587E+00 -2.49326E-02
     556.678     19.568   2.640  1.19616E+00  1.09212E+00  1.04044E-01
     557.489     20.379   2.680  1.32183E+00  1.08843E+00  2.33402E-01
     558.312     21.202   2.720  1.42607E+00  1.08478E+00  3.41296E-01
     559.147     22.037   2.760  1.48613E+00  1.08118E+00  4.04949E-01
     559.994     22.884   2.800  1.49976E+00  1.07761E+00  4.22149E-01
     560.854     23.744   2.840  1.46992E+00  1.07408E+00  3.95846E-01
     561.726     24.615   2.880  1.40763E+00  1.07054E+00  3.37092E-01
     562.609     25.499   2.920  1.32258E+00  1.06702E+00  2.55553E-01
     563.506     26.395   2.960  1.23277E+00  1.06352E+00  1.69253E-01
     564.414     27.304   3.000  1.15228E+00  1.06000E+00  9.22844E-02
     565.334     28.224   3.040  1.08597E+00  1.05647E+00  2.95034E-02
     566.267     29.157   3.080  1.03535E+00  1.05292E+00 -1.75725E-02
     567.212     30.102   3.120  1.00031E+00  1.04935E+00 -4.90389E-02
     568.169     31.059   3.160  9.78898E-01  1.04573E+00 -6.68352E-02
     569.138     32.028   3.200  9.69471E-01  1.04209E+00 -7.26218E-02
     570.120     33.009   3.240  9.69730E-01  1.03841E+00 -6.86782E-02
     571.113     34.003   3.280  9.77169E-01  1.03466E+00 -5.74938E-02
     572.119     35.009   3.320  9.88816E-01  1.03087E+00 -4.20551E-02
     573.137     36.027   3.360  1.00120E+00  1.02702E+00 -2.58124E-02
     574.167     37.057   3.400  1.01016E+00  1.02310E+00 -1.29370E-02
     575.210     38.100   3.440  1.01196E+00  1.01914E+00 -7.17684E-03
     576.264     39.154   3.480  1.00442E+00  1.01507E+00 -1.06488E-02
     577.331     40.221   3.520  9.88227E-01  1.01096E+00 -2.27363E-02
     578.410     41.300   3.560  9.66571E-01  1.00676E+00 -4.01849E-02
     579.501     42.391   3.600  9.43338E-01  1.00249E+00 -5.91496E-02
     580.605     43.495   3.640  9.21435E-01  9.98164E-01 -7.67289E-02
     581.720     44.610   3.680  9.02326E-01  9.93765E-01 -9.14385E-02
     582.848     45.738   3.720  8.87050E-01  9.89368E-01 -1.02317E-01
