# # comment:                                                     FEFF 9.6.4  
# # Source:
# # Structure
# # Reduced
# # space
# # abc:
# # angles:
# # sites:
# # POT  SCF  30  4.5000   0, screened core-hole, AFOLP (folp(0)= 1.150)
# # Abs   Z= 8 Rmt= 0.940 Rnm= 1.035 K  shell
# # Pot 1 Z=38 Rmt= 1.815 Rnm= 1.856
# # Pot 2 Z=77 Rmt= 1.258 Rnm= 1.416
# # Pot 3 Z= 8 Rmt= 0.949 Rnm= 1.039
# # Gam_ch=1.559E-01 H-L exch Vi= 0.000E+00 Vr= 0.000E+00
# # Mu=-7.366E+00 kf=2.326E+00 Vint=-1.760E+01 Rs_int= 1.559
# FMS rfms= 7.5000
# # PATH  Rmax=-1.000,  Keep_limit= 0.00, Heap_limit 0.00  Pwcrit= 2.50%
#  S02=0.999  Temp=   0.00  Debye_temp=   0.00  Global_sig2= 0.00000
#  Energy zero shift, vr, vi    0.00000E+00   0.00000E+00
#  Curved wave amplitude ratio filter   4.000%
#     file         sig2 tot  cw amp ratio   deg  nlegs   reff  inp sig2
#     0/   0 paths used
#  xsedge+ 50, used to normalize mu           4.7940E-03
#  -----------------------------------------------------------------------
#  omega    e    k    mu    mu0     chi     @#
     528.718     -9.804  -0.800  1.12783E-02  1.35953E-02 -2.31700E-03
     529.182     -9.341  -0.720  1.34894E-02  1.69162E-02 -3.42682E-03
     529.596     -8.927  -0.640  1.64619E-02  2.15899E-02 -5.12801E-03
     529.962     -8.561  -0.560  2.06581E-02  2.84473E-02 -7.78916E-03
     530.279     -8.244  -0.480  2.69777E-02  3.90588E-02 -1.20811E-02
     530.547     -7.976  -0.400  3.73308E-02  5.66708E-02 -1.93400E-02
     530.767     -7.756  -0.320  5.62131E-02  8.88005E-02 -3.25874E-02
     530.937     -7.586  -0.240  9.54630E-02  1.55264E-01 -5.98014E-02
     530.957     -7.566  -0.229  1.03755E-01  1.69290E-01 -6.55356E-02
     531.057     -7.466  -0.162  1.83105E-01  3.03824E-01 -1.20719E-01
     531.157     -7.366  -0.000  4.33374E-01  7.25517E-01 -2.92143E-01
     531.257     -7.266   0.162  7.00682E-01  1.14534E+00 -4.44660E-01
     531.357     -7.166   0.229  8.16116E-01  1.27631E+00 -4.60198E-01
     531.457     -7.066   0.281  8.36285E-01  1.32646E+00 -4.90172E-01
     531.557     -6.966   0.324  7.75138E-01  1.35062E+00 -5.75485E-01
     531.650     -6.872   0.360  7.07953E-01  1.36303E+00 -6.55076E-01
     531.766     -6.756   0.400  6.56223E-01  1.37143E+00 -7.15210E-01
     531.894     -6.628   0.440  6.23822E-01  1.37586E+00 -7.52038E-01
     532.034     -6.488   0.480  5.97093E-01  1.37744E+00 -7.80351E-01
     532.187     -6.336   0.520  5.71405E-01  1.37691E+00 -8.05508E-01
     532.351     -6.171   0.560  5.50613E-01  1.37476E+00 -8.24150E-01
     532.528     -5.994   0.600  5.41417E-01  1.37137E+00 -8.29956E-01
     532.717     -5.806   0.640  5.49541E-01  1.36700E+00 -8.17456E-01
     532.918     -5.604   0.680  5.75700E-01  1.36182E+00 -7.86120E-01
     533.132     -5.391   0.720  6.08585E-01  1.35601E+00 -7.47426E-01
     533.357     -5.165   0.760  6.38081E-01  1.34970E+00 -7.11618E-01
     533.595     -4.928   0.800  6.80954E-01  1.34297E+00 -6.62020E-01
     533.845     -4.678   0.840  7.72569E-01  1.33591E+00 -5.63341E-01
     534.107     -4.416   0.880  9.49270E-01  1.32860E+00 -3.79332E-01
     534.381     -4.141   0.920  1.26227E+00  1.32111E+00 -5.88318E-02
     534.668     -3.855   0.960  1.83769E+00  1.31348E+00  5.24214E-01
     534.967     -3.556   1.000  2.56421E+00  1.30574E+00  1.25847E+00
     535.278     -3.245   1.040  2.77261E+00  1.29795E+00  1.47466E+00
     535.601     -2.922   1.080  2.33092E+00  1.29015E+00  1.04077E+00
     535.936     -2.587   1.120  1.94902E+00  1.28236E+00  6.66654E-01
     536.283     -2.239   1.160  1.91047E+00  1.27461E+00  6.35861E-01
     536.643     -1.880   1.200  2.17255E+00  1.26693E+00  9.05628E-01
     537.015     -1.508   1.240  2.71952E+00  1.25933E+00  1.46019E+00
     537.399     -1.124   1.280  2.90608E+00  1.25183E+00  1.65425E+00
     537.795     -0.728   1.320  2.82561E+00  1.24446E+00  1.58115E+00
     538.204     -0.319   1.360  2.27469E+00  1.23722E+00  1.03747E+00
     538.624      0.101   1.400  1.39903E+00  1.23012E+00  1.68909E-01
     539.057      0.534   1.440  1.09116E+00  1.22319E+00 -1.32027E-01
     539.502      0.979   1.480  1.12478E+00  1.21641E+00 -9.16307E-02
     539.959      1.437   1.520  1.33705E+00  1.20979E+00  1.27264E-01
     540.429      1.906   1.560  1.59110E+00  1.20335E+00  3.87752E-01
     540.910      2.387   1.600  1.60869E+00  1.19709E+00  4.11598E-01
     541.404      2.881   1.640  1.39783E+00  1.19101E+00  2.06815E-01
     541.910      3.387   1.680  1.23523E+00  1.18512E+00  5.01112E-02
     542.428      3.905   1.720  1.19439E+00  1.17939E+00  1.49962E-02
     542.958      4.436   1.760  1.11850E+00  1.17385E+00 -5.53566E-02
     543.501      4.978   1.800  1.03863E+00  1.16848E+00 -1.29851E-01
     544.056      5.533   1.840  1.01099E+00  1.16328E+00 -1.52289E-01
     544.623      6.100   1.880  1.01487E+00  1.15826E+00 -1.43391E-01
     545.202      6.679   1.920  1.05524E+00  1.15340E+00 -9.81638E-02
     545.793      7.270   1.960  1.14557E+00  1.14872E+00 -3.14733E-03
     546.397      7.874   2.000  1.26420E+00  1.14417E+00  1.20028E-01
     547.012      8.490   2.040  1.35841E+00  1.13980E+00  2.18615E-01
     547.640      9.117   2.080  1.40534E+00  1.13556E+00  2.69780E-01
     548.280      9.758   2.120  1.35760E+00  1.13145E+00  2.26148E-01
     548.933     10.410   2.160  1.23977E+00  1.12747E+00  1.12304E-01
     549.597     11.074   2.200  1.17555E+00  1.12363E+00  5.19203E-02
     550.274     11.751   2.240  1.11947E+00  1.11990E+00 -4.25027E-04
     550.962     12.440   2.280  1.01837E+00  1.11626E+00 -9.78938E-02
     551.664     13.141   2.320  9.12491E-01  1.11274E+00 -2.00249E-01
     552.377     13.854   2.360  8.37985E-01  1.10931E+00 -2.71329E-01
     553.102     14.579   2.400  7.89354E-01  1.10597E+00 -3.16612E-01
     553.840     15.317   2.440  7.53896E-01  1.10268E+00 -3.48784E-01
     554.590     16.067   2.480  7.33726E-01  1.09948E+00 -3.65757E-01
     555.352     16.829   2.520  7.33628E-01  1.09633E+00 -3.62699E-01
     556.126     17.603   2.560  7.50692E-01  1.09321E+00 -3.42518E-01
     556.912     18.389   2.600  7.79365E-01  1.09015E+00 -3.10781E-01
     557.711     19.188   2.640  8.18539E-01  1.08710E+00 -2.68565E-01
     558.521     19.999   2.680  8.71576E-01  1.08409E+00 -2.12517E-01
     559.344     20.822   2.720  9.47011E-01  1.08108E+00 -1.34073E-01
     560.180     21.657   2.760  1.04081E+00  1.07809E+00 -3.72806E-02
     561.027     22.504   2.800  1.13148E+00  1.07507E+00  5.64095E-02
     561.886     23.364   2.840  1.21078E+00  1.07205E+00  1.38726E-01
     562.758     24.235   2.880  1.27236E+00  1.06902E+00  2.03334E-01
     563.642     25.119   2.920  1.31882E+00  1.06594E+00  2.52888E-01
     564.538     26.015   2.960  1.35994E+00  1.06282E+00  2.97118E-01
     565.447     26.924   3.000  1.39603E+00  1.05966E+00  3.36362E-01
     566.367     27.844   3.040  1.41359E+00  1.05646E+00  3.57132E-01
     567.300     28.777   3.080  1.39392E+00  1.05320E+00  3.40727E-01
     568.245     29.722   3.120  1.33622E+00  1.04985E+00  2.86369E-01
     569.202     30.679   3.160  1.25759E+00  1.04643E+00  2.11157E-01
     570.171     31.648   3.200  1.17653E+00  1.04295E+00  1.33577E-01
     571.152     32.630   3.240  1.10587E+00  1.03937E+00  6.64965E-02
     572.146     33.623   3.280  1.05262E+00  1.03572E+00  1.68988E-02
     573.152     34.629   3.320  1.01742E+00  1.03197E+00 -1.45444E-02
     574.170     35.647   3.360  9.97847E-01  1.02811E+00 -3.02626E-02
     575.200     36.677   3.400  9.89106E-01  1.02417E+00 -3.50595E-02
     576.242     37.720   3.440  9.84597E-01  1.02010E+00 -3.55051E-02
     577.297     38.774   3.480  9.79514E-01  1.01595E+00 -3.64365E-02
     578.364     39.841   3.520  9.72297E-01  1.01168E+00 -3.93828E-02
     579.443     40.920   3.560  9.63785E-01  1.00731E+00 -4.35217E-02
     580.534     42.011   3.600  9.55411E-01  1.00283E+00 -4.74232E-02
     581.637     43.115   3.640  9.48495E-01  9.98268E-01 -4.97731E-02
     582.753     44.230   3.680  9.43824E-01  9.93607E-01 -4.97830E-02
     583.881     45.358   3.720  9.40892E-01  9.88917E-01 -4.80251E-02
