# # comment:                                                     FEFF 9.6.4  
# # Source:
# # Structure
# # Reduced
# # space
# # abc:
# # angles:
# # sites:
# # POT  SCF  30  4.5000   0, screened core-hole, AFOLP (folp(0)= 1.150)
# # Abs   Z= 8 Rmt= 1.027 Rnm= 1.072 K  shell
# # Pot 1 Z=38 Rmt= 1.786 Rnm= 1.860
# # Pot 2 Z=77 Rmt= 1.355 Rnm= 1.436
# # Pot 3 Z= 8 Rmt= 0.941 Rnm= 1.028
# # Gam_ch=1.559E-01 H-L exch Vi= 0.000E+00 Vr= 0.000E+00
# # Mu=-5.807E+00 kf=2.318E+00 Vint=-1.704E+01 Rs_int= 1.565
# FMS rfms= 7.5000
# # PATH  Rmax=-1.000,  Keep_limit= 0.00, Heap_limit 0.00  Pwcrit= 2.50%
#  S02=0.999  Temp=   0.00  Debye_temp=   0.00  Global_sig2= 0.00000
#  Energy zero shift, vr, vi    0.00000E+00   0.00000E+00
#  Curved wave amplitude ratio filter   4.000%
#     file         sig2 tot  cw amp ratio   deg  nlegs   reff  inp sig2
#     0/   0 paths used
#  xsedge+ 50, used to normalize mu           4.7894E-03
#  -----------------------------------------------------------------------
#  omega    e    k    mu    mu0     chi     @#
     528.414     -8.246  -0.800  2.19562E-02  1.31252E-02  8.83104E-03
     528.877     -7.782  -0.720  2.80671E-02  1.62792E-02  1.17879E-02
     529.292     -7.368  -0.640  3.68290E-02  2.07036E-02  1.61254E-02
     529.658     -7.002  -0.560  4.98822E-02  2.71744E-02  2.27077E-02
     529.975     -6.685  -0.480  7.02712E-02  3.71568E-02  3.31144E-02
     530.243     -6.417  -0.400  1.04099E-01  5.36759E-02  5.04234E-02
     530.462     -6.197  -0.320  1.64888E-01  8.37301E-02  8.11579E-02
     530.633     -6.027  -0.240  2.86414E-01  1.45755E-01  1.40659E-01
     530.652     -6.007  -0.229  3.11469E-01  1.58831E-01  1.52638E-01
     530.752     -5.907  -0.162  5.45464E-01  2.84149E-01  2.61315E-01
     530.852     -5.807   0.000  1.26859E+00  6.76653E-01  5.91941E-01
     530.952     -5.707   0.162  2.06325E+00  1.06820E+00  9.95048E-01
     531.052     -5.607   0.229  2.47812E+00  1.19173E+00  1.28639E+00
     531.152     -5.507   0.281  2.89070E+00  1.24027E+00  1.65043E+00
     531.252     -5.407   0.324  3.22425E+00  1.26468E+00  1.95956E+00
     531.346     -5.314   0.360  3.25563E+00  1.27806E+00  1.97757E+00
     531.462     -5.198   0.400  3.05167E+00  1.28812E+00  1.76355E+00
     531.590     -5.070   0.440  2.84882E+00  1.29469E+00  1.55413E+00
     531.730     -4.929   0.480  2.74098E+00  1.29879E+00  1.44219E+00
     531.883     -4.777   0.520  2.61263E+00  1.30110E+00  1.31153E+00
     532.047     -4.612   0.560  2.53921E+00  1.30203E+00  1.23718E+00
     532.224     -4.436   0.600  2.60224E+00  1.30194E+00  1.30030E+00
     532.413     -4.247   0.640  2.71607E+00  1.30104E+00  1.41503E+00
     532.614     -4.046   0.680  2.50764E+00  1.29948E+00  1.20816E+00
     532.828     -3.832   0.720  2.07440E+00  1.29742E+00  7.76981E-01
     533.053     -3.607   0.760  1.87282E+00  1.29493E+00  5.77888E-01
     533.291     -3.369   0.800  1.89382E+00  1.29210E+00  6.01717E-01
     533.541     -3.119   0.840  1.97129E+00  1.28899E+00  6.82303E-01
     533.803     -2.857   0.880  1.77278E+00  1.28565E+00  4.87125E-01
     534.077     -2.583   0.920  1.53890E+00  1.28215E+00  2.56754E-01
     534.364     -2.296   0.960  1.57005E+00  1.27850E+00  2.91553E-01
     534.662     -1.997   1.000  1.71482E+00  1.27473E+00  4.40094E-01
     534.973     -1.686   1.040  1.85902E+00  1.27090E+00  5.88117E-01
     535.296     -1.363   1.080  2.01448E+00  1.26699E+00  7.47489E-01
     535.632     -1.028   1.120  2.18626E+00  1.26305E+00  9.23210E-01
     535.979     -0.681   1.160  2.14206E+00  1.25911E+00  8.82955E-01
     536.339     -0.321   1.200  1.85757E+00  1.25515E+00  6.02417E-01
     536.711      0.051   1.240  1.66882E+00  1.25119E+00  4.17629E-01
     537.095      0.435   1.280  1.65275E+00  1.24726E+00  4.05488E-01
     537.491      0.831   1.320  1.76442E+00  1.24337E+00  5.21054E-01
     537.899      1.240   1.360  1.89951E+00  1.23951E+00  6.60001E-01
     538.320      1.660   1.400  1.84984E+00  1.23570E+00  6.14142E-01
     538.753      2.093   1.440  1.66260E+00  1.23194E+00  4.30663E-01
     539.198      2.538   1.480  1.55686E+00  1.22824E+00  3.28625E-01
     539.655      2.995   1.520  1.43132E+00  1.22459E+00  2.06733E-01
     540.124      3.465   1.560  1.31428E+00  1.22100E+00  9.32778E-02
     540.606      3.946   1.600  1.27712E+00  1.21747E+00  5.96482E-02
     541.100      4.440   1.640  1.26550E+00  1.21401E+00  5.14891E-02
     541.606      4.946   1.680  1.22737E+00  1.21059E+00  1.67757E-02
     542.124      5.464   1.720  1.16523E+00  1.20723E+00 -4.20048E-02
     542.654      5.995   1.760  1.08650E+00  1.20392E+00 -1.17420E-01
     543.197      6.537   1.800  1.00327E+00  1.20068E+00 -1.97405E-01
     543.752      7.092   1.840  9.05476E-01  1.19745E+00 -2.91975E-01
     544.318      7.659   1.880  8.34468E-01  1.19428E+00 -3.59812E-01
     544.898      8.238   1.920  8.08870E-01  1.19113E+00 -3.82258E-01
     545.489      8.829   1.960  8.10097E-01  1.18802E+00 -3.77921E-01
     546.092      9.433   2.000  8.01508E-01  1.18491E+00 -3.83398E-01
     546.708     10.048   2.040  7.77596E-01  1.18182E+00 -4.04222E-01
     547.336     10.676   2.080  7.65788E-01  1.17874E+00 -4.12955E-01
     547.976     11.316   2.120  7.81069E-01  1.17566E+00 -3.94593E-01
     548.628     11.969   2.160  8.09899E-01  1.17257E+00 -3.62672E-01
     549.293     12.633   2.200  8.31386E-01  1.16945E+00 -3.38067E-01
     549.969     13.310   2.240  8.41292E-01  1.16632E+00 -3.25031E-01
     550.658     13.999   2.280  8.40875E-01  1.16315E+00 -3.22272E-01
     551.359     14.700   2.320  8.40297E-01  1.15993E+00 -3.19630E-01
     552.073     15.413   2.360  8.59414E-01  1.15667E+00 -2.97259E-01
     552.798     16.138   2.400  9.05285E-01  1.15335E+00 -2.48069E-01
     553.536     16.876   2.440  9.68789E-01  1.14997E+00 -1.81178E-01
     554.285     17.626   2.480  1.04616E+00  1.14651E+00 -1.00350E-01
     555.047     18.388   2.520  1.14289E+00  1.14297E+00 -7.97435E-05
     555.822     19.162   2.560  1.25719E+00  1.13934E+00  1.17850E-01
     556.608     19.948   2.600  1.39079E+00  1.13562E+00  2.55170E-01
     557.406     20.747   2.640  1.53190E+00  1.13181E+00  4.00087E-01
     558.217     21.558   2.680  1.60584E+00  1.12790E+00  4.77938E-01
     559.040     22.380   2.720  1.50994E+00  1.12388E+00  3.86067E-01
     559.875     23.216   2.760  1.36344E+00  1.11973E+00  2.43715E-01
     560.723     24.063   2.800  1.27892E+00  1.11547E+00  1.63447E-01
     561.582     24.923   2.840  1.23294E+00  1.11109E+00  1.21854E-01
     562.454     25.794   2.880  1.20224E+00  1.10659E+00  9.56528E-02
     563.338     26.678   2.920  1.17009E+00  1.10195E+00  6.81402E-02
     564.234     27.574   2.960  1.12643E+00  1.09720E+00  2.92313E-02
     565.142     28.483   3.000  1.07915E+00  1.09231E+00 -1.31557E-02
     566.063     29.403   3.040  1.03907E+00  1.08730E+00 -4.82313E-02
     566.995     30.336   3.080  1.01140E+00  1.08215E+00 -7.07507E-02
     567.940     31.281   3.120  9.97045E-01  1.07688E+00 -7.98332E-02
     568.897     32.238   3.160  9.93126E-01  1.07149E+00 -7.83670E-02
     569.867     33.207   3.200  9.95981E-01  1.06598E+00 -7.00022E-02
     570.848     34.188   3.240  1.00274E+00  1.06033E+00 -5.75919E-02
     571.842     35.182   3.280  1.01270E+00  1.05459E+00 -4.18898E-02
     572.848     36.188   3.320  1.02557E+00  1.04872E+00 -2.31486E-02
     573.866     37.206   3.360  1.03946E+00  1.04275E+00 -3.29165E-03
     574.896     38.236   3.400  1.04905E+00  1.03667E+00  1.23705E-02
     575.938     39.279   3.440  1.04835E+00  1.03050E+00  1.78543E-02
     576.993     40.333   3.480  1.03421E+00  1.02423E+00  9.97925E-03
     578.060     41.400   3.520  1.00775E+00  1.01788E+00 -1.01228E-02
     579.139     42.479   3.560  9.73916E-01  1.01145E+00 -3.75379E-02
     580.230     43.570   3.600  9.38809E-01  1.00496E+00 -6.61494E-02
     581.333     44.673   3.640  9.07374E-01  9.98416E-01 -9.10421E-02
     582.449     45.789   3.680  8.82332E-01  9.91867E-01 -1.09535E-01
     583.577     46.917   3.720  8.65269E-01  9.85383E-01 -1.20113E-01
