# # comment:                                                     FEFF 9.6.4  
# # Source:
# # Structure
# # Reduced
# # space
# # abc:
# # angles:
# # sites:
# # POT  SCF  30  4.5000   0, screened core-hole, AFOLP (folp(0)= 1.150)
# # Abs   Z= 8 Rmt= 0.986 Rnm= 1.061 K  shell
# # Pot 1 Z=38 Rmt= 1.787 Rnm= 1.860
# # Pot 2 Z=77 Rmt= 1.389 Rnm= 1.462
# # Pot 3 Z= 8 Rmt= 0.961 Rnm= 1.032
# # Gam_ch=1.559E-01 H-L exch Vi= 0.000E+00 Vr= 0.000E+00
# # Mu=-6.295E+00 kf=2.257E+00 Vint=-1.775E+01 Rs_int= 1.607
# FMS rfms= 7.5000
# # PATH  Rmax=-1.000,  Keep_limit= 0.00, Heap_limit 0.00  Pwcrit= 2.50%
#  S02=0.999  Temp=   0.00  Debye_temp=   0.00  Global_sig2= 0.00000
#  Energy zero shift, vr, vi    0.00000E+00   0.00000E+00
#  Curved wave amplitude ratio filter   4.000%
#     file         sig2 tot  cw amp ratio   deg  nlegs   reff  inp sig2
#     0/   0 paths used
#  xsedge+ 50, used to normalize mu           4.7007E-03
#  -----------------------------------------------------------------------
#  omega    e    k    mu    mu0     chi     @#
     527.388     -8.733  -0.800  2.77164E-02  1.46571E-02  1.30593E-02
     527.852     -8.270  -0.720  3.58914E-02  1.82712E-02  1.76202E-02
     528.266     -7.856  -0.640  4.75765E-02  2.33650E-02  2.42115E-02
     528.632     -7.490  -0.560  6.47604E-02  3.08495E-02  3.39109E-02
     528.949     -7.173  -0.480  9.08497E-02  4.24472E-02  4.84025E-02
     529.217     -6.905  -0.400  1.31926E-01  6.17201E-02  7.02061E-02
     529.437     -6.685  -0.320  1.99459E-01  9.69194E-02  1.02540E-01
     529.607     -6.514  -0.240  3.16785E-01  1.69802E-01  1.46983E-01
     529.627     -6.495  -0.229  3.38869E-01  1.85189E-01  1.53680E-01
     529.727     -6.395  -0.162  5.24903E-01  3.32824E-01  1.92079E-01
     529.827     -6.295  -0.000  1.02453E+00  7.95725E-01  2.28807E-01
     529.927     -6.195   0.162  1.75197E+00  1.25622E+00  4.95747E-01
     530.027     -6.095   0.229  2.57584E+00  1.39925E+00  1.17658E+00
     530.127     -5.995   0.281  3.77287E+00  1.45345E+00  2.31942E+00
     530.227     -5.895   0.324  5.07797E+00  1.47908E+00  3.59889E+00
     530.321     -5.801   0.360  5.49675E+00  1.49186E+00  4.00489E+00
     530.436     -5.685   0.400  5.27445E+00  1.50004E+00  3.77441E+00
     530.564     -5.557   0.440  5.26047E+00  1.50378E+00  3.75669E+00
     530.705     -5.417   0.480  5.33466E+00  1.50429E+00  3.83036E+00
     530.857     -5.265   0.520  5.27104E+00  1.50240E+00  3.76864E+00
     531.022     -5.100   0.560  4.42080E+00  1.49867E+00  2.92213E+00
     531.198     -4.923   0.600  3.45769E+00  1.49349E+00  1.96420E+00
     531.387     -4.734   0.640  3.07720E+00  1.48717E+00  1.59002E+00
     531.589     -4.533   0.680  2.95484E+00  1.47994E+00  1.47490E+00
     531.802     -4.320   0.720  2.59829E+00  1.47195E+00  1.12634E+00
     532.027     -4.094   0.760  2.14300E+00  1.46337E+00  6.79627E-01
     532.265     -3.857   0.800  1.98110E+00  1.45431E+00  5.26797E-01
     532.515     -3.607   0.840  1.86185E+00  1.44485E+00  4.16994E-01
     532.777     -3.345   0.880  1.69842E+00  1.43510E+00  2.63320E-01
     533.052     -3.070   0.920  1.59145E+00  1.42511E+00  1.66344E-01
     533.338     -2.784   0.960  1.49617E+00  1.41496E+00  8.12030E-02
     533.637     -2.485   1.000  1.40289E+00  1.40470E+00 -1.80608E-03
     533.948     -2.174   1.040  1.30693E+00  1.39437E+00 -8.74329E-02
     534.271     -1.851   1.080  1.21278E+00  1.38401E+00 -1.71227E-01
     534.606     -1.516   1.120  1.28682E+00  1.37367E+00 -8.68516E-02
     534.954     -1.168   1.160  1.57231E+00  1.36339E+00  2.08916E-01
     535.313     -0.809   1.200  1.91383E+00  1.35317E+00  5.60654E-01
     535.685     -0.437   1.240  2.18434E+00  1.34306E+00  8.41278E-01
     536.069     -0.053   1.280  2.46526E+00  1.33306E+00  1.13220E+00
     536.465      0.343   1.320  2.74901E+00  1.32321E+00  1.42580E+00
     536.874      0.752   1.360  2.74282E+00  1.31352E+00  1.42930E+00
     537.294      1.173   1.400  2.46273E+00  1.30401E+00  1.15872E+00
     537.727      1.605   1.440  2.14722E+00  1.29467E+00  8.52557E-01
     538.172      2.050   1.480  1.81893E+00  1.28551E+00  5.33417E-01
     538.629      2.508   1.520  1.52947E+00  1.27657E+00  2.52899E-01
     539.099      2.977   1.560  1.29638E+00  1.26781E+00  2.85705E-02
     539.580      3.459   1.600  1.13213E+00  1.25928E+00 -1.27151E-01
     540.074      3.952   1.640  1.04514E+00  1.25096E+00 -2.05812E-01
     540.580      4.458   1.680  1.01085E+00  1.24284E+00 -2.31996E-01
     541.098      4.976   1.720  9.41269E-01  1.23496E+00 -2.93687E-01
     541.629      5.507   1.760  8.52959E-01  1.22727E+00 -3.74310E-01
     542.171      6.049   1.800  8.17508E-01  1.21979E+00 -4.02286E-01
     542.726      6.604   1.840  8.08354E-01  1.21253E+00 -4.04178E-01
     543.293      7.171   1.880  8.05518E-01  1.20547E+00 -3.99952E-01
     543.872      7.750   1.920  8.17502E-01  1.19860E+00 -3.81102E-01
     544.463      8.341   1.960  8.26344E-01  1.19194E+00 -3.65592E-01
     545.067      8.945   2.000  8.32482E-01  1.18547E+00 -3.52987E-01
     545.682      9.561   2.040  8.49119E-01  1.17920E+00 -3.30078E-01
     546.310     10.188   2.080  8.72273E-01  1.17309E+00 -3.00814E-01
     546.950     10.829   2.120  8.94502E-01  1.16716E+00 -2.72655E-01
     547.603     11.481   2.160  9.16953E-01  1.16139E+00 -2.44437E-01
     548.267     12.145   2.200  9.37316E-01  1.15580E+00 -2.18484E-01
     548.944     12.822   2.240  9.38793E-01  1.15035E+00 -2.11559E-01
     549.633     13.511   2.280  9.22189E-01  1.14505E+00 -2.22856E-01
     550.334     14.212   2.320  9.12357E-01  1.13988E+00 -2.27521E-01
     551.047     14.925   2.360  9.27182E-01  1.13484E+00 -2.07653E-01
     551.772     15.650   2.400  9.65657E-01  1.12993E+00 -1.64273E-01
     552.510     16.388   2.440  1.00923E+00  1.12513E+00 -1.15895E-01
     553.260     17.138   2.480  1.04199E+00  1.12044E+00 -7.84569E-02
     554.022     17.900   2.520  1.07312E+00  1.11584E+00 -4.27199E-02
     554.796     18.674   2.560  1.14585E+00  1.11134E+00  3.45107E-02
     555.582     19.460   2.600  1.27533E+00  1.10692E+00  1.68405E-01
     556.381     20.259   2.640  1.43623E+00  1.10258E+00  3.33649E-01
     557.192     21.070   2.680  1.53197E+00  1.09830E+00  4.33675E-01
     558.015     21.893   2.720  1.52765E+00  1.09408E+00  4.33571E-01
     558.850     22.728   2.760  1.45370E+00  1.08990E+00  3.63802E-01
     559.697     23.575   2.800  1.36391E+00  1.08577E+00  2.78140E-01
     560.557     24.435   2.840  1.28833E+00  1.08167E+00  2.06653E-01
     561.428     25.307   2.880  1.22426E+00  1.07761E+00  1.46656E-01
     562.312     26.190   2.920  1.16515E+00  1.07354E+00  9.16104E-02
     563.208     27.087   2.960  1.10956E+00  1.06952E+00  4.00431E-02
     564.117     27.995   3.000  1.05903E+00  1.06549E+00 -6.45886E-03
     565.037     28.915   3.040  1.01594E+00  1.06145E+00 -4.55144E-02
     565.970     29.848   3.080  9.81971E-01  1.05742E+00 -7.54513E-02
     566.915     30.793   3.120  9.58298E-01  1.05338E+00 -9.50860E-02
     567.872     31.750   3.160  9.45118E-01  1.04931E+00 -1.04190E-01
     568.841     32.719   3.200  9.41657E-01  1.04522E+00 -1.03567E-01
     569.823     33.701   3.240  9.45797E-01  1.04110E+00 -9.53049E-02
     570.816     34.694   3.280  9.54643E-01  1.03695E+00 -8.23115E-02
     571.822     35.700   3.320  9.64519E-01  1.03278E+00 -6.82641E-02
     572.840     36.718   3.360  9.72052E-01  1.02855E+00 -5.64991E-02
     573.870     37.748   3.400  9.74680E-01  1.02428E+00 -4.95955E-02
     574.913     38.791   3.440  9.71747E-01  1.01996E+00 -4.82086E-02
     575.967     39.845   3.480  9.64065E-01  1.01558E+00 -5.15100E-02
     577.034     40.912   3.520  9.53381E-01  1.01115E+00 -5.77706E-02
     578.113     41.991   3.560  9.41766E-01  1.00667E+00 -6.49031E-02
     579.204     43.082   3.600  9.30535E-01  1.00215E+00 -7.16121E-02
     580.308     44.186   3.640  9.20064E-01  9.97554E-01 -7.74907E-02
     581.423     45.301   3.680  9.10335E-01  9.92943E-01 -8.26082E-02
     582.551     46.429   3.720  9.01980E-01  9.88353E-01 -8.63731E-02
