# # comment:                                                     FEFF 9.6.4  
# # Source:
# # Structure
# # Reduced
# # space
# # abc:
# # angles:
# # sites:
# # POT  SCF  30  4.5000   0, screened core-hole, AFOLP (folp(0)= 1.150)
# # Abs   Z= 8 Rmt= 1.002 Rnm= 1.063 K  shell
# # Pot 1 Z=38 Rmt= 1.771 Rnm= 1.844
# # Pot 2 Z=77 Rmt= 1.341 Rnm= 1.426
# # Pot 3 Z= 8 Rmt= 0.948 Rnm= 1.029
# # Gam_ch=1.559E-01 H-L exch Vi= 0.000E+00 Vr= 0.000E+00
# # Mu=-5.953E+00 kf=2.388E+00 Vint=-1.753E+01 Rs_int= 1.519
# FMS rfms= 7.5000
# # PATH  Rmax=-1.000,  Keep_limit= 0.00, Heap_limit 0.00  Pwcrit= 2.50%
#  S02=0.999  Temp=   0.00  Debye_temp=   0.00  Global_sig2= 0.00000
#  Energy zero shift, vr, vi    0.00000E+00   0.00000E+00
#  Curved wave amplitude ratio filter   4.000%
#     file         sig2 tot  cw amp ratio   deg  nlegs   reff  inp sig2
#     0/   0 paths used
#  xsedge+ 50, used to normalize mu           4.7156E-03
#  -----------------------------------------------------------------------
#  omega    e    k    mu    mu0     chi     @#
     527.301     -8.391  -0.800  2.32003E-02  1.46633E-02  8.53700E-03
     527.764     -7.928  -0.720  2.92386E-02  1.82780E-02  1.09605E-02
     528.179     -7.514  -0.640  3.74352E-02  2.33726E-02  1.40626E-02
     528.544     -7.148  -0.560  4.87456E-02  3.08578E-02  1.78878E-02
     528.861     -6.831  -0.480  6.46166E-02  4.24560E-02  2.21607E-02
     529.130     -6.563  -0.400  8.73027E-02  6.17290E-02  2.55737E-02
     529.349     -6.343  -0.320  1.20582E-01  9.69269E-02  2.36549E-02
     529.520     -6.173  -0.240  1.71944E-01  1.69805E-01  2.13954E-03
     529.539     -6.153  -0.229  1.81104E-01  1.85190E-01 -4.08579E-03
     529.639     -6.053  -0.162  2.55741E-01  3.32810E-01 -7.70691E-02
     529.739     -5.953  -0.000  4.48217E-01  7.95657E-01 -3.47440E-01
     529.839     -5.853   0.162  6.77417E-01  1.25612E+00 -5.78705E-01
     529.939     -5.753   0.229  8.56844E-01  1.39916E+00 -5.42318E-01
     530.039     -5.653   0.281  1.09046E+00  1.45338E+00 -3.62917E-01
     530.139     -5.553   0.324  1.45214E+00  1.47904E+00 -2.69034E-02
     530.233     -5.459   0.360  1.99404E+00  1.49186E+00  5.02179E-01
     530.349     -5.343   0.400  3.04428E+00  1.50008E+00  1.54420E+00
     530.477     -5.215   0.440  4.55743E+00  1.50386E+00  3.05357E+00
     530.617     -5.075   0.480  5.79367E+00  1.50442E+00  4.28925E+00
     530.769     -4.923   0.520  5.81008E+00  1.50257E+00  4.30751E+00
     530.934     -4.758   0.560  4.66859E+00  1.49890E+00  3.16969E+00
     531.111     -4.581   0.600  3.56580E+00  1.49378E+00  2.07202E+00
     531.300     -4.392   0.640  3.01401E+00  1.48752E+00  1.52648E+00
     531.501     -4.191   0.680  2.90357E+00  1.48034E+00  1.42323E+00
     531.714     -3.978   0.720  3.13741E+00  1.47241E+00  1.66500E+00
     531.940     -3.752   0.760  3.19959E+00  1.46388E+00  1.73571E+00
     532.178     -3.515   0.800  2.69350E+00  1.45488E+00  1.23862E+00
     532.428     -3.265   0.840  2.28401E+00  1.44548E+00  8.38532E-01
     532.690     -3.003   0.880  2.22177E+00  1.43579E+00  7.85979E-01
     532.964     -2.728   0.920  2.17195E+00  1.42586E+00  7.46087E-01
     533.250     -2.442   0.960  1.91251E+00  1.41577E+00  4.96736E-01
     533.549     -2.143   1.000  1.66493E+00  1.40556E+00  2.59373E-01
     533.860     -1.832   1.040  1.61194E+00  1.39529E+00  2.16649E-01
     534.183     -1.509   1.080  1.69577E+00  1.38500E+00  3.10770E-01
     534.518     -1.174   1.120  1.71364E+00  1.37471E+00  3.38924E-01
     534.866     -0.826   1.160  1.73823E+00  1.36448E+00  3.73750E-01
     535.226     -0.467   1.200  1.89922E+00  1.35432E+00  5.44901E-01
     535.597     -0.095   1.240  2.01754E+00  1.34425E+00  6.73290E-01
     535.981      0.289   1.280  2.00492E+00  1.33432E+00  6.70605E-01
     536.378      0.685   1.320  1.99868E+00  1.32452E+00  6.74155E-01
     536.786      1.094   1.360  1.97838E+00  1.31487E+00  6.63501E-01
     537.207      1.515   1.400  1.95415E+00  1.30541E+00  6.48737E-01
     537.640      1.947   1.440  1.91838E+00  1.29612E+00  6.22263E-01
     538.085      2.392   1.480  1.79415E+00  1.28701E+00  5.07147E-01
     538.542      2.850   1.520  1.63514E+00  1.27811E+00  3.57030E-01
     539.011      3.319   1.560  1.47950E+00  1.26940E+00  2.10098E-01
     539.493      3.801   1.600  1.39170E+00  1.26091E+00  1.30792E-01
     539.987      4.294   1.640  1.39036E+00  1.25263E+00  1.37726E-01
     540.493      4.800   1.680  1.35882E+00  1.24456E+00  1.14255E-01
     541.011      5.318   1.720  1.25123E+00  1.23669E+00  1.45457E-02
     541.541      5.849   1.760  1.11078E+00  1.22904E+00 -1.18258E-01
     542.084      6.391   1.800  9.99092E-01  1.22160E+00 -2.22512E-01
     542.638      6.946   1.840  9.10696E-01  1.21437E+00 -3.03670E-01
     543.205      7.513   1.880  8.46693E-01  1.20732E+00 -3.60632E-01
     543.784      8.092   1.920  8.12280E-01  1.20050E+00 -3.88216E-01
     544.376      8.683   1.960  8.11370E-01  1.19385E+00 -3.82480E-01
     544.979      9.287   2.000  8.44094E-01  1.18740E+00 -3.43307E-01
     545.595      9.903   2.040  8.90835E-01  1.18115E+00 -2.90312E-01
     546.223     10.530   2.080  9.20964E-01  1.17506E+00 -2.54093E-01
     546.863     11.171   2.120  9.15162E-01  1.16914E+00 -2.53982E-01
     547.515     11.823   2.160  8.90016E-01  1.16339E+00 -2.73375E-01
     548.180     12.487   2.200  8.75393E-01  1.15780E+00 -2.82405E-01
     548.856     13.164   2.240  8.72542E-01  1.15235E+00 -2.79806E-01
     549.545     13.853   2.280  8.64193E-01  1.14705E+00 -2.82860E-01
     550.246     14.554   2.320  8.54709E-01  1.14188E+00 -2.87174E-01
     550.959     15.267   2.360  8.70321E-01  1.13683E+00 -2.66513E-01
     551.685     15.992   2.400  9.15432E-01  1.13192E+00 -2.16488E-01
     552.422     16.730   2.440  9.66537E-01  1.12711E+00 -1.60574E-01
     553.172     17.480   2.480  1.00222E+00  1.12240E+00 -1.20186E-01
     553.934     18.242   2.520  1.02801E+00  1.11779E+00 -8.97776E-02
     554.708     19.016   2.560  1.06118E+00  1.11326E+00 -5.20862E-02
     555.495     19.802   2.600  1.11253E+00  1.10881E+00  3.71269E-03
     556.293     20.601   2.640  1.19712E+00  1.10444E+00  9.26796E-02
     557.104     21.412   2.680  1.33160E+00  1.10011E+00  2.31484E-01
     557.927     22.235   2.720  1.47419E+00  1.09586E+00  3.78334E-01
     558.762     23.070   2.760  1.48127E+00  1.09165E+00  3.89622E-01
     559.609     23.917   2.800  1.38768E+00  1.08746E+00  3.00224E-01
     560.469     24.777   2.840  1.32892E+00  1.08332E+00  2.45598E-01
     561.341     25.648   2.880  1.29727E+00  1.07921E+00  2.18062E-01
     562.225     26.532   2.920  1.27293E+00  1.07509E+00  1.97844E-01
     563.121     27.429   2.960  1.23516E+00  1.07099E+00  1.64164E-01
     564.029     28.337   3.000  1.17303E+00  1.06691E+00  1.06117E-01
     564.950     29.257   3.040  1.10009E+00  1.06281E+00  3.72812E-02
     565.882     30.190   3.080  1.03825E+00  1.05870E+00 -2.04554E-02
     566.827     31.135   3.120  9.97102E-01  1.05457E+00 -5.74720E-02
     567.784     32.092   3.160  9.73875E-01  1.05044E+00 -7.65658E-02
     568.753     33.061   3.200  9.62593E-01  1.04627E+00 -8.36757E-02
     569.735     34.043   3.240  9.58126E-01  1.04207E+00 -8.39448E-02
     570.729     35.036   3.280  9.57649E-01  1.03783E+00 -8.01819E-02
     571.734     36.042   3.320  9.60146E-01  1.03355E+00 -7.34016E-02
     572.752     37.060   3.360  9.64950E-01  1.02922E+00 -6.42725E-02
     573.783     38.090   3.400  9.70100E-01  1.02485E+00 -5.47523E-02
     574.825     39.133   3.440  9.72403E-01  1.02042E+00 -4.80189E-02
     575.880     40.187   3.480  9.69178E-01  1.01595E+00 -4.67697E-02
     576.946     41.254   3.520  9.59514E-01  1.01143E+00 -5.19169E-02
     578.025     42.333   3.560  9.44990E-01  1.00684E+00 -6.18470E-02
     579.117     43.424   3.600  9.28057E-01  1.00220E+00 -7.41459E-02
     580.220     44.528   3.640  9.10773E-01  9.97517E-01 -8.67438E-02
     581.336     45.643   3.680  8.94511E-01  9.92777E-01 -9.82664E-02
     582.463     46.771   3.720  8.81115E-01  9.88096E-01 -1.06981E-01
